pressure[atm]        = 1
temperature[K]       = 400
energy step[1/cm]    = 27.8016
maximum energy[1/cm] = 6469.05

Bimolecular-to-bimolecular product energy distributions:
  E, kcal/mol C3H8+OH->CH3CH2CH2+H2O C3H8+OH->CH3CHCH3+H2O
      18.4957             0.00230705            0.00163541
      18.4162             0.00243095            0.00172443
      18.3367             0.00256121            0.00181809
      18.2573             0.00269814            0.00191662
      18.1778             0.00284204            0.00202026
      18.0983             0.00299327            0.00212926
      18.0188             0.00315217            0.00224388
      17.9393             0.00331911             0.0023644
      17.8598             0.00349446            0.00249111
      17.7803             0.00367863             0.0026243
      17.7008             0.00387204            0.00276428
      17.6214             0.00407511            0.00291138
      17.5419             0.00428829            0.00306595
      17.4624             0.00451207            0.00322833
      17.3829             0.00474692             0.0033989
      17.3034             0.00499337            0.00357805
      17.2239             0.00525194            0.00376619
      17.1444             0.00552319            0.00396372
      17.0649              0.0058077             0.0041711
      16.9855             0.00610607            0.00438878
       16.906             0.00641894            0.00461724
      16.8265             0.00674694            0.00485698
       16.747             0.00709076            0.00510852
      16.6675              0.0074511            0.00537239
       16.588             0.00782871            0.00564916
      16.5085             0.00822433            0.00593943
       16.429             0.00863877            0.00624378
      16.3496             0.00907285            0.00656287
      16.2701             0.00952741            0.00689735
      16.1906              0.0100034            0.00724791
      16.1111              0.0105016            0.00761527
      16.0316              0.0110231            0.00800016
      15.9521              0.0115689            0.00840336
      15.8726              0.0121399            0.00882566
      15.7931              0.0127373            0.00926791
      15.7137              0.0133621            0.00973096
      15.6342              0.0140155             0.0102157
      15.5547              0.0146987             0.0107231
      15.4752              0.0154129             0.0112541
      15.3957              0.0161594             0.0118097
      15.3162              0.0169395             0.0123909
      15.2367              0.0177546             0.0129989
      15.1572               0.018606             0.0136346
      15.0777              0.0194952             0.0142994
      14.9983              0.0204237             0.0149943
      14.9188              0.0213931             0.0157207
      14.8393               0.022405             0.0164798
      14.7598               0.023461             0.0172729
      14.6803              0.0245628             0.0181013
      14.6008              0.0257122             0.0189667
      14.5213               0.026911             0.0198702
      14.4418              0.0281611             0.0208136
      14.3624              0.0294643             0.0217983
      14.2829              0.0308228              0.022826
      14.2034              0.0322384             0.0238982
      14.1239              0.0337132             0.0250169
      14.0444              0.0352496             0.0261836
      13.9649              0.0368496             0.0274002
      13.8854              0.0385155             0.0286686
      13.8059              0.0402496             0.0299908
      13.7265              0.0420544             0.0313686
       13.647              0.0439323             0.0328042
      13.5675              0.0458857             0.0342996
       13.488              0.0479174              0.035857
      13.4085              0.0500298             0.0374786
       13.329              0.0522257             0.0391668
      13.2495              0.0545078             0.0409237
        13.17               0.056879             0.0427518
      13.0906              0.0593421             0.0446536
      13.0111                 0.0619             0.0466316
      12.9316              0.0645557             0.0486883
      12.8521              0.0673122             0.0508263
      12.7726              0.0701726             0.0530484
      12.6931              0.0731401             0.0553572
      12.6136              0.0762179             0.0577557
      12.5341              0.0794091             0.0602466
      12.4547              0.0827171             0.0628328
      12.3752              0.0861452             0.0655174
      12.2957              0.0896968             0.0683033
      12.2162              0.0933752             0.0711937
      12.1367              0.0971839             0.0741915
      12.0572               0.101126             0.0773001
      11.9777               0.105206             0.0805226
      11.8982               0.109427             0.0838623
      11.8188               0.113791             0.0873225
      11.7393               0.118304             0.0909064
      11.6598               0.122968             0.0946176
      11.5803               0.127787             0.0984594
      11.5008               0.132765              0.102435
      11.4213               0.137905              0.106549
      11.3418                0.14321              0.110803
      11.2623               0.148684              0.115202
      11.1829               0.154331              0.119748
      11.1034               0.160154              0.124447
      11.0239               0.166156                0.1293
      10.9444               0.172341              0.134312
      10.8649               0.178712              0.139485
      10.7854               0.185272              0.144824
      10.7059               0.192024              0.150332
      10.6264               0.198971              0.156012
       10.547               0.206117              0.161868
      10.4675               0.213463              0.167903
       10.388               0.221013               0.17412
      10.3085               0.228768              0.180522
       10.229               0.236732              0.187112
      10.1495               0.244906              0.193894
        10.07               0.253293              0.200871
      9.99054               0.261893              0.208044
      9.91105               0.270709              0.215417
      9.83156               0.279742              0.222992
      9.75207               0.288993              0.230772
      9.67259               0.298462              0.238758
       9.5931                0.30815              0.246954
      9.51361               0.318057               0.25536
      9.43412               0.328184              0.263978
      9.35464               0.338528               0.27281
      9.27515               0.349091              0.281856
      9.19566               0.359869              0.291118
      9.11617               0.370862              0.300596
      9.03668               0.382067              0.310291
       8.9572               0.393482              0.320202
      8.87771               0.405103               0.33033
      8.79822               0.416927              0.340673
      8.71873               0.428951              0.351231
      8.63925               0.441168              0.362001
      8.55976               0.453575              0.372984
      8.48027               0.466165              0.384175
      8.40078               0.478932              0.395572
       8.3213               0.491869              0.407173
      8.24181               0.504969              0.418974
      8.16232               0.518223              0.430969
      8.08283               0.531622              0.443156
      8.00335               0.545157              0.455528
      7.92386               0.558817              0.468079
      7.84437               0.572592              0.480805
      7.76488               0.586469              0.493698
      7.68539               0.600436               0.50675
      7.60591                0.61448              0.519952
      7.52642               0.628586              0.533295
      7.44693               0.642741               0.54677
      7.36744               0.656927              0.560367
      7.28796                0.67113              0.574076
      7.20847                0.68533              0.587885
      7.12898               0.699511              0.601783
      7.04949               0.713654              0.615754
      6.97001               0.727739              0.629784
      6.89052               0.741746              0.643859
      6.81103               0.755653              0.657965
      6.73154               0.769438              0.672085
      6.65205                0.78308              0.686204
      6.57257               0.796554              0.700304
      6.49308               0.809838              0.714365
      6.41359               0.822905              0.728364
       6.3341               0.835731              0.742284
      6.25462                0.84829              0.756103
      6.17513               0.860556              0.769805
      6.09564               0.872502              0.783367
      6.01615               0.884099              0.796765
      5.93667               0.895321              0.809974
      5.85718               0.906139              0.822966
      5.77769               0.916525              0.835716
       5.6982               0.926449              0.848198
      5.61871               0.935881               0.86039
      5.53923               0.944793              0.872267
      5.45974               0.953152              0.883803
      5.38025                0.96093              0.894969
      5.30076               0.968096              0.905734
      5.22128               0.974619              0.916067
      5.14179               0.980468              0.925943
       5.0623               0.985613              0.935332
      4.98281               0.990024              0.944207
      4.90333                0.99367              0.952537
      4.82384                0.99652              0.960292
      4.74435               0.998545              0.967443
      4.66486               0.999715              0.973959
      4.58537                      1              0.979815
      4.50589               0.999374              0.984982
       4.4264               0.997809              0.989432
      4.34691                0.99528              0.993139
      4.26742               0.991762              0.996076
      4.18794               0.987233              0.998218
      4.10845               0.981672              0.999536
      4.02896                0.97506                     1
      3.94947               0.967382              0.999582
      3.86999               0.958623              0.998257
       3.7905               0.948772              0.996009
      3.71101               0.937821              0.992829
      3.63152               0.925764              0.988705
      3.55203               0.912598              0.983613
      3.47255               0.898326              0.977525
      3.39306               0.882951              0.970418
      3.31357               0.866483               0.96228
      3.23408               0.848936              0.953114
       3.1546                0.83033              0.942937
      3.07511               0.810688              0.931761
      2.99562                0.79004              0.919574
      2.91613               0.768421              0.906344
      2.83665                0.74587              0.892049
      2.75716               0.722434              0.876699
      2.67767               0.698161              0.860344
      2.59818               0.673109              0.843055
       2.5187               0.647341              0.824885
      2.43921                0.62093              0.805839
      2.35972               0.593955              0.785883
      2.28023               0.566502              0.764981
      2.20074               0.538662              0.743151
      2.12126               0.510532              0.720479
      2.04177               0.482215              0.697093
      1.96228                0.45382              0.673108
      1.88279               0.425459              0.648583
      1.80331               0.397253              0.623512
      1.72382               0.369324              0.597878
      1.64433               0.341797              0.571729
      1.56484                 0.3148              0.545193
      1.48536               0.288456              0.518421
      1.40587               0.262889              0.491531
      1.32638               0.238214              0.464584
      1.24689               0.214543              0.437595
       1.1674               0.191975              0.410581
      1.08792               0.170598              0.383637
      1.00843               0.150486              0.356953
     0.928941                 0.1317              0.330736
     0.849454               0.114286              0.305127
     0.769966              0.0982753               0.28018
     0.690478              0.0836804              0.255884
     0.610991              0.0705002              0.232248
     0.531503              0.0587173              0.209387
     0.452015              0.0483005              0.187512
     0.372528              0.0392055              0.166816
      0.29304              0.0313748              0.147396
     0.213552              0.0247373              0.129237
     0.134065              0.0192071               0.11225
    0.0545769              0.0146839             0.0963591
   -0.0249108              0.0110551             0.0816063
    -0.104398             0.00819996             0.0681651
    -0.183886             0.00599582             0.0562252
    -0.263374             0.00432469             0.0458477
    -0.342862             0.00307878             0.0369155
    -0.422349             0.00216418             0.0291952
    -0.501837             0.00150235             0.0224599
    -0.581325             0.00102983             0.0165904
    -0.660812            0.000696836             0.0115919
      -0.7403            0.000465149            0.00753954
    -0.819788            0.000306035            0.00449711
    -0.899275            0.000198229            0.00243857
    -0.978763            0.000126227            0.00120655
     -1.05825            7.88781e-05           0.000553153
     -1.13774            4.82645e-05           0.000239063
     -1.21723            2.88402e-05           9.84677e-05
     -1.29671            1.67731e-05           3.87955e-05
      -1.3762            9.45447e-06           1.45984e-05
     -1.45569            5.13679e-06           5.21982e-06
     -1.53518            2.67077e-06           1.75936e-06
     -1.61466              1.316e-06           5.52721e-07
     -1.69415            6.06265e-07           1.59322e-07
     -1.77364            2.56029e-07           4.11913e-08
     -1.85313            9.61158e-08           9.22615e-09
     -1.93262            3.04702e-08           1.68984e-09
      -2.0121            7.37001e-09           2.26709e-10
     -2.09159            1.07854e-09           1.70683e-11
     -2.17108            2.69871e-11           1.88522e-13

pressure[atm]        = 1
temperature[K]       = 600
energy step[1/cm]    = 41.7024
maximum energy[1/cm] = 12015.9

Bimolecular-to-bimolecular product energy distributions:
  E, kcal/mol C3H8+OH->CH3CH2CH2+H2O C3H8+OH->CH3CHCH3+H2O
      34.3546             0.00132549            0.00107903
      34.2354             0.00139377            0.00113511
      34.1161             0.00146542            0.00119398
      33.9969             0.00154059            0.00125577
      33.8777             0.00161945            0.00132062
      33.7585             0.00170216            0.00138867
      33.6392             0.00178889            0.00146008
        33.52             0.00187985              0.001535
      33.4008             0.00197521            0.00161359
      33.2815             0.00207519            0.00169602
      33.1623             0.00217999            0.00178247
      33.0431             0.00228982            0.00187312
      32.9238             0.00240492            0.00196817
      32.8046             0.00252553            0.00206782
      32.6854             0.00265188            0.00217227
      32.5661             0.00278425            0.00228175
      32.4469             0.00292288            0.00239647
      32.3277             0.00306807            0.00251669
      32.2084             0.00322011            0.00264263
      32.0892             0.00337928            0.00277457
        31.97             0.00354592            0.00291276
      31.8507             0.00372033            0.00305749
      31.7315             0.00390287            0.00320904
      31.6123             0.00409388            0.00336771
      31.4931             0.00429373            0.00353382
      31.3738             0.00450279            0.00370768
      31.2546             0.00472147            0.00388965
      31.1354             0.00495018            0.00408006
      31.0161             0.00518933            0.00427929
      30.8969             0.00543937            0.00448771
      30.7777             0.00570076            0.00470571
      30.6584             0.00597398            0.00493371
      30.5392             0.00625951            0.00517213
        30.42             0.00655787            0.00542141
      30.3007             0.00686958              0.005682
      30.1815             0.00719521            0.00595439
      30.0623             0.00753532            0.00623906
       29.943             0.00789049            0.00653652
      29.8238             0.00826134             0.0068473
      29.7046             0.00864851            0.00717195
      29.5853             0.00905264            0.00751105
      29.4661             0.00947441            0.00786517
      29.3469             0.00991454            0.00823492
      29.2277              0.0103737            0.00862094
      29.1084              0.0108527            0.00902389
      28.9892              0.0113524            0.00944443
        28.87              0.0118734            0.00988327
      28.7507              0.0124166             0.0103411
      28.6315               0.012983             0.0108188
      28.5123              0.0135732             0.0113169
       28.393              0.0141884             0.0118365
      28.2738              0.0148294             0.0123781
      28.1546              0.0154972             0.0129429
      28.0353              0.0161928             0.0135315
      27.9161              0.0169172             0.0141449
      27.7969              0.0176715             0.0147841
      27.6776              0.0184568               0.01545
      27.5584              0.0192742             0.0161436
      27.4392              0.0201248              0.016866
      27.3199                0.02101             0.0176182
      27.2007              0.0219308             0.0184013
      27.0815              0.0228887             0.0192164
      26.9623              0.0238848             0.0200647
       26.843              0.0249205             0.0209474
      26.7238              0.0259972             0.0218658
      26.6046              0.0271163              0.022821
      26.4853              0.0282793             0.0238143
      26.3661              0.0294875             0.0248472
      26.2469              0.0307427              0.025921
      26.1276              0.0320463             0.0270371
